<?xml version="1.0"?>
<opencv_storage>
<calibration_time>"Вс 21 апр 2019 17:09:34"</calibration_time>
<nr_of_frames>35</nr_of_frames>
<image_width>1280</image_width>
<image_height>720</image_height>
<board_width>9</board_width>
<board_height>6</board_height>
<square_size>50.</square_size>
<fix_aspect_ratio>1.</fix_aspect_ratio>
<!-- flags: +fix_aspectRatio +fix_principal_point +zero_tangent_dist +fix_k4 +fix_k5 -->
<flags>6158</flags>
<fisheye_model>0</fisheye_model>
<camera_matrix type_id="opencv-matrix">
  <rows>3</rows>
  <cols>3</cols>
  <dt>d</dt>
  <data>
    1.0669444805686599e+03 0. 640. 0. 1.0669444805686599e+03 360. 0. 0.
    1.</data></camera_matrix>
<distortion_coefficients type_id="opencv-matrix">
  <rows>5</rows>
  <cols>1</cols>
  <dt>d</dt>
  <data>
    2.7163439006844492e-01 -1.8322311211594593e+00 0. 0.
    3.0944935010420944e+00</data></distortion_coefficients>
<avg_reprojection_error>1.3651864187092604e+00</avg_reprojection_error>
<per_view_reprojection_errors type_id="opencv-matrix">
  <rows>35</rows>
  <cols>1</cols>
  <dt>f</dt>
  <data>
    1.24118793e+00 6.99339032e-01 8.47754657e-01 1.82311118e+00
    1.75797868e+00 7.93796301e-01 1.54887617e+00 1.44294024e+00
    8.34674716e-01 7.47831643e-01 1.24590278e+00 1.36292529e+00
    1.66246128e+00 1.63898444e+00 1.92043078e+00 1.21890056e+00
    1.11230183e+00 1.37219584e+00 1.37951243e+00 1.39855886e+00
    1.34152889e+00 1.77498293e+00 1.86993325e+00 1.14445817e+00
    1.17034948e+00 1.27507019e+00 1.30566239e+00 1.40004873e+00
    1.50898361e+00 1.31391633e+00 1.46962011e+00 7.47321367e-01
    8.71741414e-01 1.52057338e+00 1.57395291e+00</data></per_view_reprojection_errors>
<!-- a set of 6-tuples (rotation vector + translation vector) for each view -->
<extrinsic_parameters type_id="opencv-matrix">
  <rows>35</rows>
  <cols>6</cols>
  <dt>d</dt>
  <data>
    -1.1348336287561314e+00 -1.8783055208090582e-01
    -4.3286364842572825e-02 -4.0830874073091826e+02
    -9.3873156235343060e+01 9.1335089311049603e+02
    1.2253110080156135e-02 -5.9956030149493944e-01
    -2.3938561314926683e-02 -3.5201013024543147e+02
    -1.0697123627993273e+02 8.9390499080283462e+02
    -9.4650355523218432e-02 -7.8173306457463121e-01
    -2.9141622868592437e-02 -3.1449841038825411e+02
    -1.1477877278843356e+02 6.9422216241252977e+02
    2.2324527129052724e-01 2.5806699439748465e-01
    -2.7432799551595560e-01 -3.6644854834677477e+02
    -7.3823297662810262e+01 8.5640344269977686e+02
    2.1682297197652597e-01 2.8748586880633531e-01
    -2.8369552166178758e-01 -3.7200441651545134e+02
    -7.1647514993300831e+01 8.4338029851408294e+02
    -9.5160390906422954e-01 -4.9284891775425754e-01
    -1.5710759553120285e-01 -3.6634994730630746e+02
    -6.3064027096328964e+01 1.2108734287169336e+03
    -8.3310027948347368e-02 2.6629436217695085e-01
    -2.8948594545860563e-02 -3.8637446684644101e+02
    -1.2761654635789618e+02 8.5284089490587007e+02
    -7.0860492691969118e-02 3.2517066684644730e-01
    -5.8168508177765317e-02 -3.9118694954438962e+02
    -1.3335075530904379e+02 8.4545531982287071e+02
    -2.0027279120180311e-01 -1.1139965737375745e+00
    5.8581650930793405e-03 -2.5858753648272273e+02
    -1.1686769533540651e+02 7.4117003818109197e+02
    -1.6621388344369012e-01 -8.1698395354484210e-01
    -4.6956752884819201e-02 -2.8453123449678588e+02
    -1.1532173717076995e+02 6.7578826046466827e+02
    -9.9772369265673067e-02 -6.1171159153997334e-01
    -6.5021594867997107e-02 -3.1276452972990654e+02
    -1.0590152525089557e+02 6.5855926305218634e+02
    -1.0425673812516867e-01 -6.0864469727181048e-01
    -7.3524525759541146e-02 -3.1603511353864502e+02
    -1.0564241894169925e+02 6.4829238088804277e+02
    -7.7892865885708137e-02 -5.0129078988280340e-01
    -9.0267183937570661e-02 -3.3063680922480989e+02
    -9.8233048677766320e+01 6.7504912638726023e+02
    2.8403684825447351e-01 -2.9911760565110868e-01
    1.4308854968689250e-02 -3.5109471289068932e+02
    -9.4251755008577661e+01 8.0052271181067101e+02
    2.5516183192280678e-01 -2.7629781564844907e-01
    -1.8106119550421303e-02 -3.6292252870390951e+02
    -9.5902490558904049e+01 7.8778692250508323e+02
    -1.1338558186157317e+00 -1.9591669955436267e-01
    -3.8468755639240064e-02 -4.0526123032987829e+02
    -9.2985188997195593e+01 9.1642238924053106e+02
    5.9491683832254250e-01 -5.1037254724804726e-01
    1.7579526417444247e-01 -2.9198602334438493e+02
    -1.2911917448479414e+02 7.3626885557461071e+02
    9.0160782614297963e-01 -4.1041145077714714e-01
    1.2129438014642030e-01 -3.2069920833185245e+02
    -8.4183975616915163e+01 6.9514683849364428e+02
    7.7420605555729397e-02 4.9163822370648769e-01
    -6.9464132223438849e-02 -3.8948142645625217e+02
    -1.2567499544537876e+02 8.3883837684317325e+02
    9.5367209844785195e-02 5.2309645105056635e-01
    -8.1184982520703955e-02 -3.8751006224888658e+02
    -1.2459635143969838e+02 8.3150854980189649e+02
    1.1510265775996190e-01 7.6903528310019753e-01 7.1725249520596931e-02
    -3.3746323175420378e+02 -1.7291014213688416e+02
    9.2660411442219981e+02 4.0099675640313992e-01
    -1.6362677842441145e-01 -6.1032066501703907e-04
    -3.6245692107310606e+02 -1.4909630516118801e+02
    8.6185933803575733e+02 5.3270717524463573e-01 1.3367357130138607e-01
    -4.8096970722235219e-02 -3.8895768566381327e+02
    -1.4672292546026168e+02 8.1753731619397968e+02
    -9.5441265403606312e-01 -4.5031119642313172e-01
    -9.5227697983077814e-02 -3.6987822679680738e+02
    -8.8248823727361113e+01 8.7810357098316535e+02
    -1.0841913547588471e+00 -3.3459556054538470e-01
    -1.7592723719793368e-01 -4.0977578088190944e+02
    -7.1081968167653642e+01 8.6915592105933183e+02
    -1.0831594989831046e+00 -3.2639788503523737e-01
    -1.8021542115634737e-01 -4.1003472740478401e+02
    -7.2379930286352405e+01 8.6252436268738040e+02
    5.1332901612818171e-01 -5.5929996164084461e-01
    1.0415227047690687e-01 -2.9127058476742735e+02
    -1.1447404479168281e+02 6.9770221595234864e+02
    4.8944901619904402e-01 -5.3965142787838372e-01
    8.0440281678426359e-02 -2.9647152813582017e+02
    -1.0861658492889174e+02 6.7279549906054717e+02
    1.8107492720145241e-01 3.2268698477992547e-01 8.6608988772514398e-02
    -3.8561811443454462e+02 -1.8865060348612280e+02
    8.8535084328996970e+02 2.1900760300481065e-01 5.6034886182001220e-01
    1.0440335652926694e-01 -3.9271999609431441e+02
    -1.9137954204129119e+02 8.5322916846375574e+02
    2.2355731275784546e-01 5.1482352102759421e-01 1.1195253644361093e-01
    -3.8594273994554356e+02 -1.8576654119373927e+02
    8.4161147751038686e+02 9.1489861674640183e-02
    -8.9451332969703279e-01 1.2193377303094148e-01
    -2.5124531134836556e+02 -1.5545062058303770e+02
    6.8836751272364154e+02 2.6447915836280483e-01
    -1.0401945829301038e+00 1.5956647324839821e-01
    -2.4113662998589109e+02 -1.2963874055727456e+02
    6.4956997138488339e+02 3.6919081191696590e-01
    -4.5261892360983996e-01 5.0292657300849017e-02
    -3.7679648930994881e+02 -1.2228726609660650e+02
    7.5334016547220517e+02 5.6986173901752601e-01
    -3.6059892976371449e-01 6.8181414308627675e-02
    -3.5994692984679921e+02 -1.4765815271680603e+02
    7.3233816570728891e+02</data></extrinsic_parameters>
<image_points type_id="opencv-matrix">
  <rows>35</rows>
  <cols>54</cols>
  <dt>"2f"</dt>
  <data>
    1.58662704e+02 2.49643997e+02 2.19088959e+02 2.54049225e+02
    2.79461731e+02 2.58260895e+02 3.39644012e+02 2.63168243e+02
    3.99114868e+02 2.67792603e+02 4.57211182e+02 2.72819061e+02
    5.14751404e+02 2.77167847e+02 5.70713257e+02 2.81448364e+02
    6.26365723e+02 2.85709198e+02 1.42602737e+02 2.70163330e+02
    2.06286087e+02 2.74487671e+02 2.69440125e+02 2.78739227e+02
    3.32632111e+02 2.83554901e+02 3.94872559e+02 2.88157440e+02
    4.55809814e+02 2.92308838e+02 5.16095276e+02 2.96712219e+02
    5.74752441e+02 3.00979950e+02 6.32583923e+02 3.05244354e+02
    1.25613968e+02 2.93077942e+02 1.92399323e+02 2.96921906e+02
    2.58639160e+02 3.01409729e+02 3.24781250e+02 3.05852356e+02
    3.90402985e+02 3.09133148e+02 4.54250122e+02 3.14441376e+02
    5.17521423e+02 3.18728180e+02 5.78783569e+02 3.23202484e+02
    6.39498230e+02 3.26897369e+02 1.06248543e+02 3.18705627e+02
    1.76915054e+02 3.22568298e+02 2.46473862e+02 3.26281006e+02
    3.16255249e+02 3.31387360e+02 3.85201508e+02 3.34038025e+02
    4.52385132e+02 3.39567688e+02 5.18883179e+02 3.44074738e+02
    5.83369690e+02 3.47675568e+02 6.46698975e+02 3.52078827e+02
    8.45570831e+01 3.46881073e+02 1.59580307e+02 3.51085541e+02
    2.33137253e+02 3.54539856e+02 3.06417908e+02 3.59902832e+02
    3.79262878e+02 3.63303314e+02 4.49973816e+02 3.68028259e+02
    5.20160217e+02 3.72286072e+02 5.87970459e+02 3.76112732e+02
    6.54647339e+02 3.79648621e+02 6.00584488e+01 3.79373474e+02
    1.40384277e+02 3.83480347e+02 2.18148254e+02 3.87894989e+02
    2.95678986e+02 3.92403778e+02 3.72493256e+02 3.95534912e+02
    4.47486816e+02 4.00676025e+02 5.21546936e+02 4.04548370e+02
    5.93079773e+02 4.08405121e+02 6.63231018e+02 4.11678558e+02
    2.15841568e+02 2.31299377e+02 2.76466125e+02 2.33648712e+02
    3.34266815e+02 2.36017075e+02 3.88869995e+02 2.38326050e+02
    4.40336090e+02 2.40580093e+02 4.88383270e+02 2.42647461e+02
    5.34365967e+02 2.44568192e+02 5.77388550e+02 2.46457642e+02
    6.18356812e+02 2.48162186e+02 2.16958618e+02 2.91583527e+02
    2.77991333e+02 2.92273529e+02 3.35887360e+02 2.92856201e+02
    3.90597931e+02 2.93500031e+02 4.41937836e+02 2.94041901e+02
    4.90276550e+02 2.94446930e+02 5.36032532e+02 2.95057068e+02
    5.78774536e+02 2.95545654e+02 6.19475464e+02 2.96044861e+02
    2.18068344e+02 3.51308289e+02 2.79282532e+02 3.50159912e+02
    3.37162872e+02 3.48935974e+02 3.91958801e+02 3.47842255e+02
    4.43834595e+02 3.46782593e+02 4.91601318e+02 3.45767059e+02
    5.37443420e+02 3.44878876e+02 5.80099243e+02 3.44081848e+02
    6.20635864e+02 3.43188568e+02 2.19289398e+02 4.11506439e+02
    2.80529999e+02 4.08568573e+02 3.38704163e+02 4.05572906e+02
    3.93312836e+02 4.02981934e+02 4.45161255e+02 4.00259674e+02
    4.92913239e+02 3.97444977e+02 5.38451782e+02 3.95186859e+02
    5.81424805e+02 3.92854950e+02 6.21677795e+02 3.90527222e+02
    2.20631241e+02 4.71099121e+02 2.81742004e+02 4.66530884e+02
    3.39723480e+02 4.61956177e+02 3.93976013e+02 4.57404419e+02
    4.45696716e+02 4.53276764e+02 4.93799652e+02 4.49006195e+02
    5.39335815e+02 4.45028442e+02 5.81954651e+02 4.41528564e+02
    6.22674011e+02 4.37822693e+02 2.22105011e+02 5.31390076e+02
    2.83024384e+02 5.25104553e+02 3.40490356e+02 5.18626465e+02
    3.94961945e+02 5.12560120e+02 4.46480743e+02 5.06754395e+02
    4.94257568e+02 5.00870605e+02 5.39963989e+02 4.95497314e+02
    5.82606934e+02 4.90410431e+02 6.23341553e+02 4.85660370e+02
    1.53769669e+02 1.83042892e+02 2.28162964e+02 1.91923813e+02
    2.96479523e+02 1.99730927e+02 3.59383942e+02 2.07510056e+02
    4.17471313e+02 2.14519516e+02 4.69991211e+02 2.21182251e+02
    5.19233337e+02 2.27234512e+02 5.63856628e+02 2.32802139e+02
    6.05834656e+02 2.37862061e+02 1.55668335e+02 2.59420624e+02
    2.30538071e+02 2.64792542e+02 2.99417877e+02 2.69607819e+02
    3.63110504e+02 2.74308258e+02 4.20922638e+02 2.78633911e+02
    4.73983093e+02 2.82406311e+02 5.23148193e+02 2.86126129e+02
    5.67697754e+02 2.89428711e+02 6.09323608e+02 2.92536102e+02
    1.57220901e+02 3.35914154e+02 2.32963562e+02 3.37907898e+02
    3.02430481e+02 3.39441742e+02 3.66279755e+02 3.40863739e+02
    4.25176575e+02 3.42268738e+02 4.77443298e+02 3.43599304e+02
    5.26521484e+02 3.44812408e+02 5.71117676e+02 3.46040497e+02
    6.12674744e+02 3.46933990e+02 1.59126587e+02 4.14247406e+02
    2.35441772e+02 4.12397736e+02 3.05500549e+02 4.10526489e+02
    3.69111633e+02 4.09158600e+02 4.28430298e+02 4.07402710e+02
    4.80771851e+02 4.05790741e+02 5.29754700e+02 4.04484192e+02
    5.74584717e+02 4.03229187e+02 6.15867126e+02 4.02175964e+02
    1.61395142e+02 4.92584015e+02 2.38007568e+02 4.87268188e+02
    3.07905975e+02 4.82048187e+02 3.71411713e+02 4.77192047e+02
    4.30227081e+02 4.72649719e+02 4.83516144e+02 4.68441254e+02
    5.32401123e+02 4.64429596e+02 5.77270569e+02 4.60812042e+02
    6.19141846e+02 4.57557922e+02 1.63720871e+02 5.72567017e+02
    2.40585526e+02 5.63431519e+02 3.10020325e+02 5.54955383e+02
    3.73957397e+02 5.46859009e+02 4.33057190e+02 5.39364685e+02
    4.85824036e+02 5.32203247e+02 5.35049500e+02 5.25474304e+02
    5.80010681e+02 5.19528564e+02 6.21879028e+02 5.13948242e+02
    1.82666809e+02 2.69296204e+02 2.32452286e+02 2.52597046e+02
    2.84495422e+02 2.35236526e+02 3.39476410e+02 2.16798172e+02
    3.96804688e+02 1.98315048e+02 4.56201813e+02 1.78856537e+02
    5.18231934e+02 1.58593140e+02 5.82272217e+02 1.37598907e+02
    6.49623047e+02 1.15443558e+02 2.04148239e+02 3.27531830e+02
    2.54198425e+02 3.12360748e+02 3.06433777e+02 2.96368469e+02
    3.61551453e+02 2.79574768e+02 4.18847717e+02 2.62366302e+02
    4.77826752e+02 2.44405243e+02 5.39834229e+02 2.25640869e+02
    6.03731812e+02 2.06184586e+02 6.70889404e+02 1.85524704e+02
    2.25978729e+02 3.84135376e+02 2.75603760e+02 3.70402863e+02
    3.28133820e+02 3.55573364e+02 3.82968658e+02 3.40070984e+02
    4.39698517e+02 3.24447601e+02 4.99153229e+02 3.07711334e+02
    5.61189758e+02 2.90293579e+02 6.24774658e+02 2.72272125e+02
    6.91369019e+02 2.53288971e+02 2.47337967e+02 4.40365204e+02
    2.97120453e+02 4.27977051e+02 3.49193756e+02 4.14567627e+02
    4.04449310e+02 4.00303131e+02 4.60836273e+02 3.85907135e+02
    5.20042236e+02 3.70214050e+02 5.81719421e+02 3.54125885e+02
    6.45232117e+02 3.37430878e+02 7.11579956e+02 3.19856262e+02
    2.68408112e+02 4.95294495e+02 3.18171356e+02 4.83853729e+02
    3.70176514e+02 4.71600494e+02 4.25440063e+02 4.58412140e+02
    4.82005981e+02 4.45212555e+02 5.40610718e+02 4.30968781e+02
    6.02342285e+02 4.16041016e+02 6.65427734e+02 4.00783875e+02
    7.31330139e+02 3.85057129e+02 2.89492523e+02 5.49355225e+02
    3.39420959e+02 5.39144653e+02 3.91657196e+02 5.27919067e+02
    4.46225464e+02 5.16225525e+02 5.02588928e+02 5.04062775e+02
    5.61387268e+02 4.90928314e+02 6.22525269e+02 4.77237427e+02
    6.85533386e+02 4.63293762e+02 7.50941467e+02 4.49188873e+02
    1.68851944e+02 2.70481445e+02 2.17649658e+02 2.52900162e+02
    2.69008514e+02 2.34590652e+02 3.23354340e+02 2.15354568e+02
    3.80366699e+02 1.95695923e+02 4.39761566e+02 1.74951706e+02
    5.02201477e+02 1.53329559e+02 5.66902649e+02 1.30715134e+02
    6.35312744e+02 1.06613617e+02 1.91243744e+02 3.29646271e+02
    2.40363083e+02 3.13748779e+02 2.91785889e+02 2.96951782e+02
    3.46494568e+02 2.79470917e+02 4.03732208e+02 2.61155609e+02
    4.62932709e+02 2.42136612e+02 5.25342041e+02 2.22287750e+02
    5.90143555e+02 2.01474609e+02 6.58253845e+02 1.79174866e+02
    2.13608673e+02 3.87143555e+02 2.62592407e+02 3.72732910e+02
    3.14624237e+02 3.57413361e+02 3.69176544e+02 3.41305939e+02
    4.25832581e+02 3.24819366e+02 4.85602203e+02 3.07125793e+02
    5.47902893e+02 2.88595673e+02 6.12559448e+02 2.69478973e+02
    6.80468445e+02 2.49296112e+02 2.35808945e+02 4.44363678e+02
    2.85017059e+02 4.31393982e+02 3.36702087e+02 4.17587189e+02
    3.91749390e+02 4.02686798e+02 4.48251160e+02 3.87664642e+02
    5.07794159e+02 3.71373810e+02 5.70274475e+02 3.54309631e+02
    6.34672363e+02 3.36833008e+02 7.02362732e+02 3.18191895e+02
    2.57787170e+02 5.00095367e+02 3.07122681e+02 4.88376282e+02
    3.58769958e+02 4.75805176e+02 4.13884338e+02 4.62242371e+02
    4.70669891e+02 4.48437531e+02 5.29677185e+02 4.33669434e+02
    5.92169006e+02 4.18050995e+02 6.56399902e+02 4.02026733e+02
    7.23500732e+02 3.85426727e+02 2.79818848e+02 5.55126404e+02
    3.29462494e+02 5.44697510e+02 3.81250763e+02 5.33447266e+02
    4.35825287e+02 5.21423889e+02 4.92436340e+02 5.08851135e+02
    5.51765991e+02 4.95260101e+02 6.13904602e+02 4.81033783e+02
    6.77895813e+02 4.66427124e+02 7.44783264e+02 4.51663818e+02
    3.12461456e+02 3.05268646e+02 3.57351868e+02 3.09525879e+02
    4.00611328e+02 3.13542114e+02 4.42529022e+02 3.17783508e+02
    4.82837616e+02 3.21569824e+02 5.21294373e+02 3.25976013e+02
    5.58944275e+02 3.29424957e+02 5.94715393e+02 3.33187042e+02
    6.29796631e+02 3.36641296e+02 3.18372192e+02 3.29605743e+02
    3.64500824e+02 3.33715210e+02 4.08975372e+02 3.37626617e+02
    4.51982178e+02 3.41342773e+02 4.93073303e+02 3.45422394e+02
    5.32528137e+02 3.48863525e+02 5.70767456e+02 3.52368958e+02
    6.07478516e+02 3.56082703e+02 6.42658142e+02 3.59608032e+02
    3.24619812e+02 3.55829193e+02 3.72097076e+02 3.59271454e+02
    4.17611145e+02 3.62866302e+02 4.61472290e+02 3.66358612e+02
    5.03923462e+02 3.69124420e+02 5.43893250e+02 3.73324524e+02
    5.82768066e+02 3.76446259e+02 6.20207214e+02 3.80143158e+02
    6.56374146e+02 3.83357300e+02 3.31159485e+02 3.83550537e+02
    3.80003723e+02 3.86648071e+02 4.26820374e+02 3.89527557e+02
    4.71664856e+02 3.93229767e+02 5.15211487e+02 3.95444092e+02
    5.56210938e+02 3.99108002e+02 5.95744507e+02 4.02334808e+02
    6.33809753e+02 4.05094482e+02 6.70494446e+02 4.08431091e+02
    3.37852051e+02 4.13215698e+02 3.88209595e+02 4.15688721e+02
    4.36260681e+02 4.18211182e+02 4.82126099e+02 4.21648407e+02
    5.26475708e+02 4.23990967e+02 5.68466431e+02 4.26545593e+02
    6.09279602e+02 4.29703156e+02 6.47712769e+02 4.32320984e+02
    6.85535278e+02 4.34488556e+02 3.45248474e+02 4.45418152e+02
    3.96902618e+02 4.47521393e+02 4.46266327e+02 4.49698090e+02
    4.93585663e+02 4.52251526e+02 5.38828369e+02 4.53986450e+02
    5.81666016e+02 4.56576385e+02 6.23283020e+02 4.58865845e+02
    6.62880432e+02 4.60851685e+02 7.01213074e+02 4.62777069e+02
    1.55384216e+02 2.01569061e+02 2.07241226e+02 1.96012039e+02
    2.61406219e+02 1.90163361e+02 3.18528351e+02 1.84267517e+02
    3.78275696e+02 1.78294510e+02 4.40349854e+02 1.72379181e+02
    5.05044189e+02 1.66172409e+02 5.71569702e+02 1.59917435e+02
    6.41589539e+02 1.52836288e+02 1.53427063e+02 2.63126709e+02
    2.05703217e+02 2.58788208e+02 2.59997162e+02 2.54246750e+02
    3.17691498e+02 2.49591507e+02 3.78181244e+02 2.45082153e+02
    4.40340942e+02 2.40142838e+02 5.05453766e+02 2.35260880e+02
    5.72681641e+02 2.30265579e+02 6.42837280e+02 2.24812790e+02
    1.52497284e+02 3.24660370e+02 2.04287888e+02 3.21495758e+02
    2.59225769e+02 3.18204193e+02 3.17171570e+02 3.14684357e+02
    3.77156555e+02 3.11191132e+02 4.40370331e+02 3.07659760e+02
    5.06192780e+02 3.04157532e+02 5.73830933e+02 3.00423889e+02
    6.44231812e+02 2.96224091e+02 1.51374481e+02 3.87426453e+02
    2.03265778e+02 3.85527985e+02 2.58048004e+02 3.83411194e+02
    3.16605347e+02 3.81374664e+02 3.76734436e+02 3.79131317e+02
    4.40256470e+02 3.76561340e+02 5.06502258e+02 3.74147430e+02
    5.74437134e+02 3.71342773e+02 6.45551208e+02 3.68934265e+02
    1.50224838e+02 4.50043762e+02 2.02529694e+02 4.49567078e+02
    2.57444122e+02 4.48813538e+02 3.16432800e+02 4.47999756e+02
    3.77213562e+02 4.47008453e+02 4.40444519e+02 4.45736267e+02
    5.07174103e+02 4.44504730e+02 5.75548218e+02 4.43224060e+02
    6.46543945e+02 4.41868713e+02 1.49390320e+02 5.13710938e+02
    2.02380661e+02 5.14611572e+02 2.57786346e+02 5.15250854e+02
    3.16277191e+02 5.15882568e+02 3.76907104e+02 5.16262695e+02
    4.41222931e+02 5.16336182e+02 5.08058594e+02 5.16326233e+02
    5.76542114e+02 5.16408569e+02 6.47723083e+02 5.16493469e+02
    1.45641785e+02 1.92689026e+02 1.95294388e+02 1.84662292e+02
    2.47162384e+02 1.75917618e+02 3.02439362e+02 1.67185684e+02
    3.60492401e+02 1.58068253e+02 4.21465820e+02 1.48640610e+02
    4.85584564e+02 1.39078217e+02 5.52288818e+02 1.28901382e+02
    6.22823486e+02 1.18145187e+02 1.45481781e+02 2.54980423e+02
    1.95462372e+02 2.48236069e+02 2.47620987e+02 2.40885101e+02
    3.03328430e+02 2.33768158e+02 3.62177002e+02 2.26237198e+02
    4.23542297e+02 2.18430618e+02 4.88032227e+02 2.10267273e+02
    5.55469299e+02 2.02072113e+02 6.26432190e+02 1.93060684e+02
    1.46397781e+02 3.16928131e+02 1.95763260e+02 3.11695923e+02
    2.48637466e+02 3.05962189e+02 3.04548615e+02 2.99922668e+02
    3.63083984e+02 2.94129242e+02 4.25423431e+02 2.87709686e+02
    4.91118927e+02 2.81379272e+02 5.58717529e+02 2.74518616e+02
    6.29858948e+02 2.67323273e+02 1.46818024e+02 3.80083008e+02
    1.96544769e+02 3.76374359e+02 2.49308884e+02 3.72227020e+02
    3.06036804e+02 3.68007996e+02 3.64718964e+02 3.63460266e+02
    4.27364105e+02 3.58469360e+02 4.93336975e+02 3.53465607e+02
    5.61497314e+02 3.48295105e+02 6.33359863e+02 3.42831879e+02
    1.47730270e+02 4.43315948e+02 1.97582901e+02 4.41114319e+02
    2.50799103e+02 4.38362549e+02 3.08109741e+02 4.35658752e+02
    3.67356628e+02 4.32725555e+02 4.29634583e+02 4.29554047e+02
    4.96151672e+02 4.26137756e+02 5.64750854e+02 4.22468414e+02
    6.36653687e+02 4.18656372e+02 1.48906342e+02 5.07439240e+02
    1.99544800e+02 5.06786896e+02 2.52964478e+02 5.05818329e+02
    3.09750092e+02 5.04762421e+02 3.69177551e+02 5.03574677e+02
    4.32621094e+02 5.01744873e+02 4.99160797e+02 4.99931763e+02
    5.68137695e+02 4.98049530e+02 6.40247620e+02 4.96091675e+02
    2.63063721e+02 1.90639603e+02 3.14610870e+02 2.06946823e+02
    3.61251678e+02 2.21870453e+02 4.02931000e+02 2.35100616e+02
    4.40567505e+02 2.47407288e+02 4.74348297e+02 2.58387390e+02
    5.05738434e+02 2.68440094e+02 5.34211548e+02 2.77790863e+02
    5.60568176e+02 2.86104523e+02 2.65547180e+02 2.61273865e+02
    3.18210175e+02 2.73950867e+02 3.65248749e+02 2.85221588e+02
    4.07587067e+02 2.95503632e+02 4.45071655e+02 3.05106720e+02
    4.79428131e+02 3.13220917e+02 5.10798981e+02 3.20937897e+02
    5.39132263e+02 3.27848724e+02 5.65242920e+02 3.34405182e+02
    2.67722290e+02 3.32460052e+02 3.21664673e+02 3.41284698e+02
    3.69196594e+02 3.48843414e+02 4.11775513e+02 3.56087097e+02
    4.50549500e+02 3.62415344e+02 4.83687653e+02 3.68292725e+02
    5.14997009e+02 3.73579163e+02 5.43386841e+02 3.78544739e+02
    5.69521851e+02 3.82761902e+02 2.71198181e+02 4.05984924e+02
    3.25407257e+02 4.10562469e+02 3.73532959e+02 4.14525452e+02
    4.15506195e+02 4.18455261e+02 4.54927643e+02 4.21661133e+02
    4.88079620e+02 4.24695831e+02 5.19177856e+02 4.27563904e+02
    5.47612122e+02 4.30134613e+02 5.73251221e+02 4.32483307e+02
    2.75372925e+02 4.80245483e+02 3.29261017e+02 4.80878357e+02
    3.77083160e+02 4.81128296e+02 4.18477966e+02 4.81757111e+02
    4.57291473e+02 4.82108643e+02 4.91550232e+02 4.82199066e+02
    5.22381348e+02 4.82305054e+02 5.50624084e+02 4.82546051e+02
    5.76967407e+02 4.82573212e+02 2.78442871e+02 5.57172058e+02
    3.32391113e+02 5.53638489e+02 3.79726837e+02 5.49949036e+02
    4.21990204e+02 5.46831909e+02 4.60808533e+02 5.43819702e+02
    4.94387207e+02 5.40990417e+02 5.25487549e+02 5.38486328e+02
    5.53838257e+02 5.36364502e+02 5.80093384e+02 5.34227356e+02
    1.87422577e+02 1.77132294e+02 2.60909424e+02 1.87564880e+02
    3.28711243e+02 1.97145493e+02 3.90284058e+02 2.06336014e+02
    4.46527527e+02 2.14915497e+02 4.97350464e+02 2.22571091e+02
    5.44531067e+02 2.29616806e+02 5.87396545e+02 2.36086411e+02
    6.27478149e+02 2.41966110e+02 1.91005096e+02 2.54543762e+02
    2.65512329e+02 2.61515564e+02 3.33971893e+02 2.67780792e+02
    3.96300995e+02 2.73617523e+02 4.52352509e+02 2.79263000e+02
    5.03839417e+02 2.84038879e+02 5.51028748e+02 2.88580017e+02
    5.93667480e+02 2.92684631e+02 6.33431030e+02 2.96634003e+02
    1.94497299e+02 3.32962982e+02 2.70321198e+02 3.35989624e+02
    3.39188721e+02 3.38657990e+02 4.01930542e+02 3.41134460e+02
    4.59328064e+02 3.43442322e+02 5.09939545e+02 3.45606262e+02
    5.56702820e+02 3.47614532e+02 5.99446777e+02 3.49528717e+02
    6.39384033e+02 3.51160706e+02 1.98594833e+02 4.13456146e+02
    2.75110107e+02 4.12475555e+02 3.44761902e+02 4.11443268e+02
    4.07350861e+02 4.10552887e+02 4.65246185e+02 4.09520813e+02
    5.16064392e+02 4.08544342e+02 5.63130127e+02 4.08082581e+02
    6.05965393e+02 4.07337952e+02 6.45190002e+02 4.06842285e+02
    2.02897430e+02 4.94966400e+02 2.79922394e+02 4.89912140e+02
    3.49472443e+02 4.85007446e+02 4.12011047e+02 4.80589478e+02
    4.69551941e+02 4.76538788e+02 5.21473206e+02 4.72604614e+02
    5.68645569e+02 4.69157806e+02 6.11413452e+02 4.66079773e+02
    6.50782104e+02 4.63194305e+02 2.07503464e+02 5.78701843e+02
    2.84544067e+02 5.69518494e+02 3.54044006e+02 5.60788208e+02
    4.17178864e+02 5.52702698e+02 4.75090881e+02 5.45239441e+02
    5.26407837e+02 5.38096558e+02 5.73828552e+02 5.31912903e+02
    6.17182556e+02 5.26078857e+02 6.57057251e+02 5.20766418e+02
    1.30501205e+02 1.88097336e+02 2.14607468e+02 1.92558044e+02
    2.92597473e+02 1.96473801e+02 3.65213684e+02 2.00639740e+02
    4.32774719e+02 2.04750290e+02 4.94536774e+02 2.08420532e+02
    5.52627869e+02 2.12015900e+02 6.06010986e+02 2.15183578e+02
    6.56219177e+02 2.17921844e+02 1.34649078e+02 2.68470917e+02
    2.18939713e+02 2.69755890e+02 2.97646637e+02 2.70846985e+02
    3.71038025e+02 2.72251373e+02 4.38578613e+02 2.73444092e+02
    5.00723389e+02 2.74550690e+02 5.58749939e+02 2.75622009e+02
    6.11830566e+02 2.76703583e+02 6.61762329e+02 2.77535339e+02
    1.38493393e+02 3.49140839e+02 2.23684418e+02 3.47155212e+02
    3.02711700e+02 3.45243866e+02 3.76415588e+02 3.43417053e+02
    4.44702209e+02 3.41843140e+02 5.06589935e+02 3.40464691e+02
    5.64289978e+02 3.39213165e+02 6.17451843e+02 3.37920471e+02
    6.67489624e+02 3.36652130e+02 1.42741913e+02 4.31453339e+02
    2.28422943e+02 4.26286713e+02 3.07967072e+02 4.21019653e+02
    3.81644928e+02 4.16361115e+02 4.50420013e+02 4.11563995e+02
    5.12454041e+02 4.07412384e+02 5.70236267e+02 4.03656036e+02
    6.23487122e+02 4.00028717e+02 6.72779358e+02 3.96729065e+02
    1.47252838e+02 5.14088562e+02 2.33306763e+02 5.05440704e+02
    3.12786072e+02 4.97279602e+02 3.86167877e+02 4.89300934e+02
    4.54620270e+02 4.82000763e+02 5.17428162e+02 4.75051666e+02
    5.75552246e+02 4.68569702e+02 6.28503357e+02 4.62691742e+02
    6.78240295e+02 4.57237701e+02 1.51772293e+02 5.98349792e+02
    2.38438644e+02 5.86160828e+02 3.17514404e+02 5.74713318e+02
    3.91214905e+02 5.63857544e+02 4.59858246e+02 5.53615295e+02
    5.22075134e+02 5.43898621e+02 5.80329834e+02 5.34747437e+02
    6.33923279e+02 5.26401672e+02 6.83977722e+02 5.18749207e+02
    1.17418442e+02 1.85926239e+02 2.03251541e+02 1.90030472e+02
    2.82798584e+02 1.93489761e+02 3.56925293e+02 1.97261383e+02
    4.25620270e+02 2.00947113e+02 4.88552124e+02 2.04499374e+02
    5.47599182e+02 2.07642868e+02 6.01878540e+02 2.10634109e+02
    6.53060669e+02 2.13214294e+02 1.22086983e+02 2.67553314e+02
    2.08378845e+02 2.68283813e+02 2.88531647e+02 2.68935699e+02
    3.63313507e+02 2.69702850e+02 4.32080963e+02 2.70686768e+02
    4.95443604e+02 2.71405884e+02 5.54496338e+02 2.72245178e+02
    6.08479919e+02 2.72895233e+02 6.59270508e+02 2.73432526e+02
    1.26674355e+02 3.49350067e+02 2.13662323e+02 3.46701874e+02
    2.94161316e+02 3.44184937e+02 3.69336365e+02 3.41917877e+02
    4.39016144e+02 3.39797028e+02 5.01917877e+02 3.37979950e+02
    5.60559204e+02 3.36347351e+02 6.14546387e+02 3.34848572e+02
    6.65472412e+02 3.33256470e+02 1.31701157e+02 4.32812103e+02
    2.19116501e+02 4.26931732e+02 3.00132568e+02 4.21059937e+02
    3.75232697e+02 4.15932739e+02 4.45291687e+02 4.10586670e+02
    5.08409149e+02 4.05894104e+02 5.67220581e+02 4.01611450e+02
    6.21382812e+02 3.97650940e+02 6.71563232e+02 3.94042084e+02
    1.36667175e+02 5.16752136e+02 2.24634766e+02 5.07222931e+02
    3.05657959e+02 4.98316040e+02 3.80343658e+02 4.89689575e+02
    4.50297668e+02 4.81898773e+02 5.14043823e+02 4.74291046e+02
    5.73107361e+02 4.67386169e+02 6.27117493e+02 4.60982574e+02
    6.77477417e+02 4.55052490e+02 1.41832596e+02 6.02364075e+02
    2.30364777e+02 5.89293213e+02 3.11030640e+02 5.76877686e+02
    3.86171906e+02 5.65450317e+02 4.56065826e+02 5.54439880e+02
    5.19435303e+02 5.44067688e+02 5.78542725e+02 5.34411133e+02
    6.33200989e+02 5.25495605e+02 6.83959045e+02 5.17371582e+02
    1.14524597e+02 2.04816635e+02 1.98878418e+02 2.04860168e+02
    2.78186554e+02 2.04584625e+02 3.53076508e+02 2.04871719e+02
    4.23456848e+02 2.05485535e+02 4.88688934e+02 2.05799240e+02
    5.50731506e+02 2.06379333e+02 6.07966675e+02 2.06874268e+02
    6.62600403e+02 2.07004944e+02 1.20311760e+02 2.83486603e+02
    2.04929077e+02 2.80970490e+02 2.84515961e+02 2.78390747e+02
    3.60016327e+02 2.76165314e+02 4.30352783e+02 2.74429077e+02
    4.96103302e+02 2.72447693e+02 5.57776978e+02 2.70777313e+02
    6.14884827e+02 2.69261169e+02 6.69178833e+02 2.67667633e+02
    1.26070488e+02 3.62012268e+02 2.10923416e+02 3.56799805e+02
    2.90876556e+02 3.51683075e+02 3.66639374e+02 3.46923950e+02
    4.37658508e+02 3.42591919e+02 5.02861389e+02 3.38593384e+02
    5.64344543e+02 3.34865479e+02 6.21502502e+02 3.31423309e+02
    6.75719116e+02 3.28067810e+02 1.32043106e+02 4.41753693e+02
    2.17369431e+02 4.34057281e+02 2.97573273e+02 4.26343719e+02
    3.73166626e+02 4.19269714e+02 4.44507568e+02 4.12291748e+02
    5.09715393e+02 4.05685028e+02 5.71362610e+02 3.99689758e+02
    6.28590576e+02 3.94065521e+02 6.82230591e+02 3.88835999e+02
    1.38206711e+02 5.21569702e+02 2.23712204e+02 5.11159149e+02
    3.03743774e+02 5.00860321e+02 3.79057617e+02 4.91144073e+02
    4.50199249e+02 4.81987732e+02 5.15903015e+02 4.73133423e+02
    5.77622925e+02 4.64913361e+02 6.34649902e+02 4.57344788e+02
    6.88571533e+02 4.49958008e+02 1.44517776e+02 6.02549744e+02
    2.30463013e+02 5.89273865e+02 3.10171112e+02 5.76605042e+02
    3.85530579e+02 5.64495483e+02 4.56444061e+02 5.52796936e+02
    5.21754272e+02 5.41561279e+02 5.83719360e+02 5.31071899e+02
    6.41324707e+02 5.21287415e+02 6.95339172e+02 5.12234985e+02
    1.71933884e+02 2.35345840e+02 2.41041107e+02 2.35682663e+02
    3.08983521e+02 2.35793289e+02 3.75373871e+02 2.36105286e+02
    4.39492767e+02 2.36591110e+02 5.01125732e+02 2.36950546e+02
    5.61144165e+02 2.37261246e+02 6.18610779e+02 2.37565460e+02
    6.74851685e+02 2.37593643e+02 1.74322113e+02 2.99571838e+02
    2.42967514e+02 2.98915192e+02 3.10103424e+02 2.98204712e+02
    3.76019073e+02 2.97565918e+02 4.39524445e+02 2.96990509e+02
    5.00568268e+02 2.96196045e+02 5.60143250e+02 2.95496185e+02
    6.17057800e+02 2.94709381e+02 6.72206787e+02 2.94058533e+02
    1.76886429e+02 3.61329071e+02 2.44827713e+02 3.60051727e+02
    3.11397858e+02 3.58174591e+02 3.76519592e+02 3.56573914e+02
    4.39556000e+02 3.55198914e+02 4.99948517e+02 3.53362793e+02
    5.58605896e+02 3.51545898e+02 6.14829834e+02 3.50011292e+02
    6.69556946e+02 3.48258148e+02 1.79492966e+02 4.22351379e+02
    2.46671295e+02 4.20243164e+02 3.12432617e+02 4.17793213e+02
    3.76804443e+02 4.15127319e+02 4.39197266e+02 4.12745850e+02
    4.98954071e+02 4.09744965e+02 5.57115967e+02 4.07044006e+02
    6.12920715e+02 4.04249664e+02 6.66855530e+02 4.01682831e+02
    1.82050842e+02 4.81596344e+02 2.48497803e+02 4.78631744e+02
    3.13362030e+02 4.75367706e+02 3.76843994e+02 4.71467194e+02
    4.38486023e+02 4.68127045e+02 4.97758911e+02 4.64488983e+02
    5.55470642e+02 4.60687469e+02 6.10493103e+02 4.57313416e+02
    6.64199829e+02 4.53985046e+02 1.84789581e+02 5.39792664e+02
    2.50464035e+02 5.36169495e+02 3.14389130e+02 5.31851807e+02
    3.77028595e+02 5.27475342e+02 4.37999268e+02 5.23322632e+02
    4.96493835e+02 5.18432251e+02 5.53615906e+02 5.13751831e+02
    6.08339966e+02 5.09588501e+02 6.61495789e+02 5.05524353e+02
    1.49268021e+02 2.31797775e+02 2.19420151e+02 2.30164932e+02
    2.88286621e+02 2.28444901e+02 3.55980652e+02 2.27050064e+02
    4.21720398e+02 2.26072403e+02 4.85228607e+02 2.24732315e+02
    5.47161133e+02 2.23530991e+02 6.06618347e+02 2.22355453e+02
    6.64724670e+02 2.21072983e+02 1.53674789e+02 2.97230103e+02
    2.23328537e+02 2.94726196e+02 2.91631134e+02 2.92296021e+02
    3.58864410e+02 2.89992188e+02 4.24157990e+02 2.87946991e+02
    4.87140228e+02 2.85572845e+02 5.48317810e+02 2.83530731e+02
    6.07195618e+02 2.81243408e+02 6.64501953e+02 2.79283264e+02
    1.58406952e+02 3.60265503e+02 2.27211761e+02 3.57229889e+02
    2.95157471e+02 3.53975647e+02 3.61590546e+02 3.50633209e+02
    4.26373749e+02 3.47918610e+02 4.88518066e+02 3.44460480e+02
    5.49209717e+02 3.41285645e+02 6.07488464e+02 3.38379944e+02
    6.64280640e+02 3.35281952e+02 1.62927155e+02 4.22813629e+02
    2.31227066e+02 4.19192352e+02 2.98275055e+02 4.15232483e+02
    3.64218567e+02 4.11060211e+02 4.28242188e+02 4.07234344e+02
    4.89921844e+02 4.02752380e+02 5.50106506e+02 3.98615143e+02
    6.07951721e+02 3.94703979e+02 6.63905151e+02 3.90765167e+02
    1.67445557e+02 4.83752747e+02 2.34980103e+02 4.79233124e+02
    3.01356049e+02 4.74425293e+02 3.66490936e+02 4.69319672e+02
    4.29949921e+02 4.64555542e+02 4.91016022e+02 4.59568237e+02
    5.50571228e+02 4.54523315e+02 6.07767822e+02 4.49876617e+02
    6.63487610e+02 4.45036316e+02 1.72274948e+02 5.43680603e+02
    2.39260269e+02 5.38562805e+02 3.04581909e+02 5.32835815e+02
    3.68829468e+02 5.27348450e+02 4.31597504e+02 5.21661377e+02
    4.92003601e+02 5.15560425e+02 5.51032898e+02 5.09673737e+02
    6.07884216e+02 5.04153656e+02 6.62946533e+02 4.98911530e+02
    1.63714783e+02 2.51087143e+02 2.23905762e+02 2.55841843e+02
    2.84117645e+02 2.60545410e+02 3.44027618e+02 2.65915894e+02
    4.03273376e+02 2.70952148e+02 4.60975372e+02 2.76320953e+02
    5.18301392e+02 2.81072571e+02 5.73857056e+02 2.85755127e+02
    6.29196838e+02 2.90412201e+02 1.48081665e+02 2.71633820e+02
    2.11459442e+02 2.76447235e+02 2.74408569e+02 2.81179474e+02
    3.37327087e+02 2.86392120e+02 3.99350311e+02 2.91348450e+02
    4.60007599e+02 2.96131805e+02 5.19833862e+02 3.00828766e+02
    5.78091736e+02 3.05518463e+02 6.35509521e+02 3.10218353e+02
    1.31337708e+02 2.94642426e+02 1.97808395e+02 2.99124634e+02
    2.64058502e+02 3.03893890e+02 3.29891541e+02 3.08731140e+02
    3.95146240e+02 3.12515320e+02 4.58535034e+02 3.18354584e+02
    5.21476685e+02 3.23210419e+02 5.82410217e+02 3.27950104e+02
    6.42523254e+02 3.32043854e+02 1.12362686e+02 3.20363831e+02
    1.82764877e+02 3.24598541e+02 2.52196579e+02 3.28882202e+02
    3.21592743e+02 3.34465973e+02 3.90103424e+02 3.37660797e+02
    4.57036926e+02 3.43578369e+02 5.23004517e+02 3.48476410e+02
    5.87055237e+02 3.52638184e+02 6.49822632e+02 3.57399445e+02
    9.14187546e+01 3.48625214e+02 1.65940033e+02 3.53188873e+02
    2.39169113e+02 3.57415894e+02 3.12244293e+02 3.63126984e+02
    3.84556641e+02 3.66929840e+02 4.54906769e+02 3.72173920e+02
    5.24502930e+02 3.76847687e+02 5.91878052e+02 3.81220062e+02
    6.58027649e+02 3.85266418e+02 6.73245087e+01 3.81237579e+02
    1.47150742e+02 3.85781494e+02 2.24662552e+02 3.90675018e+02
    3.01861908e+02 3.95762299e+02 3.78289917e+02 3.99377472e+02
    4.52702087e+02 4.05037781e+02 5.26167969e+02 4.09437225e+02
    5.97234375e+02 4.13675018e+02 6.66715698e+02 4.17433136e+02
    2.15970413e+02 1.72230057e+02 2.88608002e+02 1.79051270e+02
    3.58249390e+02 1.85848404e+02 4.23866638e+02 1.92275909e+02
    4.85660950e+02 1.98353607e+02 5.43395447e+02 2.03870148e+02
    5.98401245e+02 2.09282196e+02 6.49927185e+02 2.13987656e+02
    6.99365723e+02 2.18600296e+02 2.07360321e+02 2.35318909e+02
    2.78484283e+02 2.40261246e+02 3.46623291e+02 2.45131912e+02
    4.11234253e+02 2.49606781e+02 4.71766846e+02 2.53941452e+02
    5.28702393e+02 2.57692993e+02 5.82733643e+02 2.61437134e+02
    6.33378540e+02 2.64602173e+02 6.81587891e+02 2.67587250e+02
    1.99322433e+02 2.93746399e+02 2.69040405e+02 2.97189575e+02
    3.35660828e+02 3.00437775e+02 3.98977966e+02 3.03397156e+02
    4.58920715e+02 3.06357941e+02 5.14581665e+02 3.08143799e+02
    5.67706482e+02 3.09861298e+02 6.17580750e+02 3.11718414e+02
    6.65363892e+02 3.13770447e+02 1.91614853e+02 3.50112030e+02
    2.59851532e+02 3.52292480e+02 3.25187225e+02 3.53874542e+02
    3.87246704e+02 3.54782532e+02 4.45976105e+02 3.56565338e+02
    5.01029968e+02 3.56772064e+02 5.53291931e+02 3.57358154e+02
    6.02666992e+02 3.57850616e+02 6.49261597e+02 3.58167175e+02
    1.84495514e+02 4.03083893e+02 2.51311142e+02 4.03635651e+02
    3.15069763e+02 4.03796722e+02 3.75581329e+02 4.02970612e+02
    4.33274292e+02 4.03006775e+02 4.87574280e+02 4.02512390e+02
    5.39265503e+02 4.01645813e+02 5.87574463e+02 4.00618439e+02
    6.33681030e+02 4.00263306e+02 1.77725708e+02 4.53666687e+02
    2.42868805e+02 4.52737366e+02 3.05173096e+02 4.51426361e+02
    3.64701630e+02 4.49945007e+02 4.21279022e+02 4.48589844e+02
    4.74503693e+02 4.46402100e+02 5.25385620e+02 4.44296265e+02
    5.73206421e+02 4.42492767e+02 6.18861145e+02 4.41137329e+02
    1.48922379e+02 2.29797333e+02 2.27936813e+02 2.28362152e+02
    3.04168060e+02 2.27012466e+02 3.77465515e+02 2.25898956e+02
    4.47761658e+02 2.25072128e+02 5.13962646e+02 2.23541443e+02
    5.77768677e+02 2.22489410e+02 6.38029602e+02 2.21377380e+02
    6.96346436e+02 2.19885223e+02 1.52018692e+02 2.81571075e+02
    2.27715042e+02 2.78672119e+02 3.00838867e+02 2.76539307e+02
    3.71506409e+02 2.74475586e+02 4.38931458e+02 2.71960510e+02
    5.02840790e+02 2.69810516e+02 5.64374390e+02 2.67566284e+02
    6.22527161e+02 2.65162140e+02 6.78459778e+02 2.62741791e+02
    1.55196777e+02 3.27439362e+02 2.27486023e+02 3.24340973e+02
    2.97871277e+02 3.21208344e+02 3.65783844e+02 3.17983887e+02
    4.31164734e+02 3.15670013e+02 4.92414612e+02 3.11702209e+02
    5.51740662e+02 3.08090881e+02 6.08071289e+02 3.04884094e+02
    6.62557434e+02 3.01927185e+02 1.57858505e+02 3.70272491e+02
    2.27531113e+02 3.66626129e+02 2.94945129e+02 3.63316376e+02
    3.60282623e+02 3.58567932e+02 4.23268005e+02 3.55698151e+02
    4.82671387e+02 3.50812775e+02 5.40480774e+02 3.46290070e+02
    5.94662903e+02 3.42615631e+02 6.47094116e+02 3.38417114e+02
    1.60256927e+02 4.09440857e+02 2.27267212e+02 4.05321777e+02
    2.92134003e+02 4.00812012e+02 3.55053223e+02 3.95335236e+02
    4.15498199e+02 3.91079742e+02 4.73268982e+02 3.86379700e+02
    5.29156738e+02 3.81319122e+02 5.81809265e+02 3.76421509e+02
    6.32658508e+02 3.72003357e+02 1.62590332e+02 4.45748077e+02
    2.27184921e+02 4.40712646e+02 2.89536530e+02 4.35483917e+02
    3.50187897e+02 4.30081573e+02 4.08528778e+02 4.25439606e+02
    4.64402985e+02 4.19292175e+02 5.18239380e+02 4.13735504e+02
    5.69700378e+02 4.08370667e+02 6.19226990e+02 4.03797913e+02
    1.45377594e+02 2.00473068e+02 1.86793915e+02 1.92463089e+02
    2.30584213e+02 1.83687241e+02 2.78448730e+02 1.74386566e+02
    3.29728394e+02 1.64663757e+02 3.85231323e+02 1.54460983e+02
    4.44701538e+02 1.43406891e+02 5.08483215e+02 1.31785080e+02
    5.77585144e+02 1.18921211e+02 1.51212723e+02 2.63930817e+02
    1.92712936e+02 2.57996033e+02 2.36664230e+02 2.51441360e+02
    2.84666382e+02 2.44575485e+02 3.36845032e+02 2.37396927e+02
    3.92404236e+02 2.29522629e+02 4.52215057e+02 2.21371552e+02
    5.16559265e+02 2.12722824e+02 5.85777771e+02 2.03233505e+02
    1.57700806e+02 3.26315063e+02 1.98669495e+02 3.22486633e+02
    2.43422134e+02 3.17956604e+02 2.91483032e+02 3.13400818e+02
    3.42737518e+02 3.08697479e+02 3.99462646e+02 3.03359711e+02
    4.60242340e+02 2.97614441e+02 5.24493408e+02 2.91726379e+02
    5.93561340e+02 2.85226898e+02 1.64048508e+02 3.89092773e+02
    2.05048615e+02 3.87303802e+02 2.49444550e+02 3.85186554e+02
    2.98543793e+02 3.82741760e+02 3.49749054e+02 3.80398834e+02
    4.06474670e+02 3.77219177e+02 4.67472382e+02 3.74092896e+02
    5.31967896e+02 3.70661194e+02 6.01535339e+02 3.67014160e+02
    1.70211243e+02 4.50869873e+02 2.11605438e+02 4.51255341e+02
    2.56495453e+02 4.51035522e+02 3.06086975e+02 4.50669373e+02
    3.58131775e+02 4.50607697e+02 4.14072906e+02 4.50155609e+02
    4.75268799e+02 4.49291443e+02 5.40041565e+02 4.48403015e+02
    6.09373718e+02 4.47539520e+02 1.77119843e+02 5.12931519e+02
    2.19113266e+02 5.15268799e+02 2.64433258e+02 5.17091064e+02
    3.13345642e+02 5.19155762e+02 3.65269623e+02 5.21390808e+02
    4.22138794e+02 5.22778198e+02 4.83260681e+02 5.24493225e+02
    5.47808960e+02 5.26320984e+02 6.16648254e+02 5.28466919e+02
    1.43640121e+02 2.00358292e+02 1.83552002e+02 1.91685898e+02
    2.26153732e+02 1.82144089e+02 2.72555878e+02 1.72133896e+02
    3.22555573e+02 1.61440720e+02 3.76936401e+02 1.50034332e+02
    4.35729706e+02 1.37698074e+02 4.98777130e+02 1.24741890e+02
    5.68002502e+02 1.10159340e+02 1.50911591e+02 2.64329468e+02
    1.90918945e+02 2.57820618e+02 2.33652252e+02 2.50568649e+02
    2.80321564e+02 2.43188461e+02 3.31162750e+02 2.35256744e+02
    3.85659363e+02 2.26626404e+02 4.44639496e+02 2.17349625e+02
    5.08564362e+02 2.07622864e+02 5.77898376e+02 1.96943024e+02
    1.58964539e+02 3.27032074e+02 1.98378555e+02 3.22749176e+02
    2.41715515e+02 3.18036377e+02 2.88464111e+02 3.12833649e+02
    3.38692017e+02 3.07579468e+02 3.94450439e+02 3.01636902e+02
    4.54420898e+02 2.95220459e+02 5.18372742e+02 2.88527771e+02
    5.87502625e+02 2.81143616e+02 1.66521500e+02 3.90165222e+02
    2.06141800e+02 3.88175323e+02 2.49186417e+02 3.85649597e+02
    2.97209961e+02 3.83103790e+02 3.47216858e+02 3.80337677e+02
    4.03116821e+02 3.76665863e+02 4.63394745e+02 3.73075623e+02
    5.27507019e+02 3.69199280e+02 5.97083740e+02 3.64896149e+02
    1.73854324e+02 4.52307922e+02 2.14070465e+02 4.52385742e+02
    2.57708954e+02 4.52147552e+02 3.06103302e+02 4.51589844e+02
    3.57091156e+02 4.51544403e+02 4.12187927e+02 4.50577118e+02
    4.72726135e+02 4.49590759e+02 5.37236633e+02 4.48502075e+02
    6.06610657e+02 4.47384552e+02 1.82315140e+02 5.14399780e+02
    2.23106873e+02 5.16644409e+02 2.67005432e+02 5.18658630e+02
    3.14880676e+02 5.20577393e+02 3.65962982e+02 5.22828491e+02
    4.21860321e+02 5.24212769e+02 4.82409851e+02 5.25912781e+02
    5.46758911e+02 5.27891296e+02 6.15681213e+02 5.29927490e+02
    2.50621735e+02 1.59516296e+02 2.77422760e+02 1.58134995e+02
    3.06476715e+02 1.56494400e+02 3.38936584e+02 1.54826157e+02
    3.74242828e+02 1.53108261e+02 4.13262115e+02 1.51080002e+02
    4.56108337e+02 1.49147766e+02 5.02868408e+02 1.47191711e+02
    5.55512512e+02 1.44471436e+02 2.51139923e+02 2.17885406e+02
    2.77790253e+02 2.18946304e+02 3.06719147e+02 2.19625290e+02
    3.38936859e+02 2.20696594e+02 3.74470001e+02 2.22197510e+02
    4.13080933e+02 2.23284531e+02 4.55740540e+02 2.24957169e+02
    5.03113983e+02 2.26578949e+02 5.55387512e+02 2.28402069e+02
    2.52128281e+02 2.74782379e+02 2.78073395e+02 2.78119019e+02
    3.07419525e+02 2.81515717e+02 3.39250549e+02 2.85236176e+02
    3.73841522e+02 2.89430084e+02 4.13237854e+02 2.93557526e+02
    4.56475342e+02 2.98345703e+02 5.03368805e+02 3.03685883e+02
    5.55094666e+02 3.09352142e+02 2.52568924e+02 3.31836334e+02
    2.78408997e+02 3.37379944e+02 3.07339752e+02 3.43261047e+02
    3.39992065e+02 3.49494385e+02 3.73869659e+02 3.56305847e+02
    4.13217377e+02 3.63289673e+02 4.56335602e+02 3.71364227e+02
    5.03072327e+02 3.79761536e+02 5.55123657e+02 3.89463013e+02
    2.52941330e+02 3.87732727e+02 2.79253418e+02 3.95311310e+02
    3.08382202e+02 4.03393066e+02 3.41232697e+02 4.12034668e+02
    3.76054993e+02 4.21640259e+02 4.14109283e+02 4.31768677e+02
    4.57010773e+02 4.42566711e+02 5.03806305e+02 4.54564941e+02
    5.55152405e+02 4.67689117e+02 2.54373825e+02 4.43354645e+02
    2.80567810e+02 4.53421722e+02 3.10170563e+02 4.63666351e+02
    3.41986938e+02 4.74587006e+02 3.76318817e+02 4.86649384e+02
    4.15292572e+02 4.99269012e+02 4.58043030e+02 5.13450500e+02
    5.04217987e+02 5.28626587e+02 5.54436096e+02 5.45466675e+02
    1.92287857e+02 1.76378143e+02 2.54714767e+02 1.75583954e+02
    3.17083893e+02 1.74825485e+02 3.79060883e+02 1.74259979e+02
    4.40624725e+02 1.74034592e+02 5.00895721e+02 1.73558060e+02
    5.60512390e+02 1.73120117e+02 6.18709595e+02 1.72777344e+02
    6.76728027e+02 1.72069992e+02 1.98132202e+02 2.35076996e+02
    2.59791809e+02 2.34031723e+02 3.21198120e+02 2.33107971e+02
    3.82662445e+02 2.32334549e+02 4.43118134e+02 2.31424377e+02
    5.02379333e+02 2.30536362e+02 5.61099548e+02 2.29817307e+02
    6.18349792e+02 2.28793121e+02 6.75184631e+02 2.27633133e+02
    2.03888885e+02 2.90965668e+02 2.64619415e+02 2.89975861e+02
    3.25454651e+02 2.88598175e+02 3.85901031e+02 2.87399261e+02
    4.45506897e+02 2.86589539e+02 5.03862030e+02 2.84893585e+02
    5.61527466e+02 2.83401520e+02 6.17912476e+02 2.82362762e+02
    6.73644409e+02 2.80740265e+02 2.09620148e+02 3.45924957e+02
    2.69515106e+02 3.44679535e+02 3.29218262e+02 3.43265900e+02
    3.89003418e+02 3.41448608e+02 4.47497955e+02 3.40265808e+02
    5.05154938e+02 3.38079102e+02 5.61896423e+02 3.36250183e+02
    6.17498718e+02 3.34280640e+02 6.72199158e+02 3.32346893e+02
    2.15082062e+02 3.98704895e+02 2.74242279e+02 3.97281128e+02
    3.33039856e+02 3.95499054e+02 3.91791626e+02 3.93159668e+02
    4.49458221e+02 3.91292480e+02 5.06077362e+02 3.89114777e+02
    5.62122009e+02 3.86514343e+02 6.16524414e+02 3.84296173e+02
    6.70479309e+02 3.81997162e+02 2.20569427e+02 4.50352020e+02
    2.78835358e+02 4.48562164e+02 3.36832001e+02 4.46275513e+02
    3.94523834e+02 4.43836182e+02 4.51344025e+02 4.41594116e+02
    5.07022919e+02 4.38568604e+02 5.62211243e+02 4.35775757e+02
    6.16021301e+02 4.33168488e+02 6.69014587e+02 4.30722351e+02
    1.35200821e+02 1.69136902e+02 1.93483963e+02 1.66467178e+02
    2.52864502e+02 1.63701782e+02 3.14878021e+02 1.60729675e+02
    3.78592896e+02 1.58202225e+02 4.43971313e+02 1.55437027e+02
    5.11196686e+02 1.52714706e+02 5.79280334e+02 1.49925385e+02
    6.49684875e+02 1.46943237e+02 1.53097229e+02 2.28445953e+02
    2.10030304e+02 2.26439468e+02 2.68386078e+02 2.24600616e+02
    3.29217865e+02 2.22785034e+02 3.91922577e+02 2.20715302e+02
    4.55710175e+02 2.18817764e+02 5.21310425e+02 2.16992554e+02
    5.87711426e+02 2.14548126e+02 6.55960205e+02 2.12045456e+02
    1.70248260e+02 2.83652191e+02 2.25636169e+02 2.82885803e+02
    2.83314636e+02 2.81604950e+02 3.42914215e+02 2.80588928e+02
    4.04059387e+02 2.79884491e+02 4.66591553e+02 2.78010590e+02
    5.30843933e+02 2.76134979e+02 5.95455078e+02 2.74607208e+02
    6.61800476e+02 2.73010498e+02 1.86389755e+02 3.37188110e+02
    2.40827698e+02 3.37321228e+02 2.97432831e+02 3.36952423e+02
    3.56262939e+02 3.36180634e+02 4.15824127e+02 3.36097656e+02
    4.76899902e+02 3.34505768e+02 5.39555359e+02 3.33250183e+02
    6.02779724e+02 3.32118896e+02 6.67342407e+02 3.30614471e+02
    2.01636093e+02 3.88047852e+02 2.55477707e+02 3.88598938e+02
    3.11113647e+02 3.88575317e+02 3.68684509e+02 3.87965973e+02
    4.27374207e+02 3.87861023e+02 4.86731812e+02 3.87534332e+02
    5.48082275e+02 3.86490967e+02 6.09605103e+02 3.85554810e+02
    6.72428162e+02 3.84820343e+02 2.16869675e+02 4.36700317e+02
    2.69903076e+02 4.37677368e+02 3.24516693e+02 4.38018982e+02
    3.80784912e+02 4.38148712e+02 4.37964966e+02 4.38585785e+02
    4.96418793e+02 4.37964600e+02 5.56158691e+02 4.37397491e+02
    6.16364502e+02 4.37087769e+02 6.77487122e+02 4.36951233e+02
    1.85305130e+02 2.53117920e+02 2.48664352e+02 2.62091064e+02
    3.10531250e+02 2.70578033e+02 3.70210693e+02 2.79148682e+02
    4.27400940e+02 2.87349518e+02 4.81799561e+02 2.95601593e+02
    5.34611938e+02 3.03007019e+02 5.84619263e+02 3.10196747e+02
    6.33212341e+02 3.17063843e+02 1.82980988e+02 2.85251801e+02
    2.49405594e+02 2.93888672e+02 3.13641998e+02 3.02194336e+02
    3.75745361e+02 3.10443207e+02 4.35138977e+02 3.18490631e+02
    4.91667969e+02 3.25819244e+02 5.46128845e+02 3.32939453e+02
    5.97736633e+02 3.39855865e+02 6.47549500e+02 3.46613342e+02
    1.80450455e+02 3.20460052e+02 2.49941803e+02 3.28300934e+02
    3.16881592e+02 3.36384796e+02 3.81580048e+02 3.43988647e+02
    4.43497742e+02 3.50629761e+02 5.01694611e+02 3.58598724e+02
    5.57924438e+02 3.65508179e+02 6.11218506e+02 3.72240784e+02
    6.62590637e+02 3.78217346e+02 1.77504883e+02 3.59101044e+02
    2.50401001e+02 3.66483002e+02 3.20475769e+02 3.73581940e+02
    3.87707336e+02 3.81447266e+02 4.52305573e+02 3.87161011e+02
    5.12550110e+02 3.94422729e+02 5.70744507e+02 4.01137115e+02
    6.26007080e+02 4.07126526e+02 6.78591797e+02 4.13300446e+02
    1.74286133e+02 4.01193054e+02 2.50577087e+02 4.08210724e+02
    3.24028900e+02 4.14816315e+02 3.93879639e+02 4.22309906e+02
    4.60885590e+02 4.27993652e+02 5.23723999e+02 4.34048737e+02
    5.84086975e+02 4.39997620e+02 6.41093994e+02 4.45606445e+02
    6.95858643e+02 4.50644501e+02 1.70609406e+02 4.48713654e+02
    2.50777542e+02 4.55229706e+02 3.27588257e+02 4.61482239e+02
    4.00989441e+02 4.67509338e+02 4.70657898e+02 4.72203583e+02
    5.35979370e+02 4.78223480e+02 5.98505920e+02 4.83295044e+02
    6.57672241e+02 4.87933105e+02 7.14263062e+02 4.92261505e+02
    1.32901947e+02 2.73273193e+02 1.98200592e+02 2.75855743e+02
    2.61679504e+02 2.78332581e+02 3.24083038e+02 2.81252777e+02
    3.84387299e+02 2.83888947e+02 4.42282623e+02 2.87000916e+02
    4.98630341e+02 2.89399384e+02 5.52345215e+02 2.91714813e+02
    6.04755798e+02 2.94164032e+02 1.27791237e+02 2.98463715e+02
    1.96257355e+02 3.00651855e+02 2.62806580e+02 3.02936249e+02
    3.27861176e+02 3.05527557e+02 3.90856567e+02 3.08063416e+02
    4.51320374e+02 3.10249573e+02 5.09792725e+02 3.12300934e+02
    5.65706604e+02 3.14492279e+02 6.19739380e+02 3.16687134e+02
    1.22240463e+02 3.26509491e+02 1.94247330e+02 3.28052551e+02
    2.63847382e+02 3.29909546e+02 3.32087006e+02 3.31825562e+02
    3.98035095e+02 3.32773560e+02 4.60668671e+02 3.35703735e+02
    5.21712158e+02 3.37695190e+02 5.79626587e+02 3.39658508e+02
    6.35727722e+02 3.41139038e+02 1.16042778e+02 3.57618042e+02
    1.91893234e+02 3.58493256e+02 2.65207031e+02 3.59500397e+02
    3.36607086e+02 3.61862335e+02 4.05666809e+02 3.61584991e+02
    4.71289948e+02 3.64183411e+02 5.34663757e+02 3.65751373e+02
    5.94992249e+02 3.66825592e+02 6.53112732e+02 3.68698669e+02
    1.09032890e+02 3.91822479e+02 1.89098526e+02 3.92321808e+02
    2.66382538e+02 3.92741913e+02 3.41314209e+02 3.94681488e+02
    4.13618958e+02 3.94967651e+02 4.82341278e+02 3.95823853e+02
    5.48506409e+02 3.96959808e+02 6.11413025e+02 3.97797974e+02
    6.71693542e+02 3.97977539e+02 1.01272240e+02 4.31068359e+02
    1.86222015e+02 4.30859863e+02 2.67687744e+02 4.31269867e+02
    3.46802551e+02 4.31836365e+02 4.22677032e+02 4.30793243e+02
    4.94557556e+02 4.32049225e+02 5.63911377e+02 4.32243774e+02
    6.29286926e+02 4.32058472e+02 6.92496643e+02 4.31958557e+02
    1.28837708e+02 2.71453766e+02 1.94605423e+02 2.73613586e+02
    2.58651428e+02 2.75488312e+02 3.21405945e+02 2.77788818e+02
    3.82366638e+02 2.80168671e+02 4.40675629e+02 2.82706055e+02
    4.97627258e+02 2.84643982e+02 5.51884521e+02 2.86706787e+02
    6.04980347e+02 2.88699799e+02 1.23434006e+02 2.96539307e+02
    1.92484192e+02 2.98351410e+02 2.59554932e+02 3.00065796e+02
    3.25294647e+02 3.02068604e+02 3.88889435e+02 3.04153687e+02
    4.49821655e+02 3.05950378e+02 5.08820557e+02 3.07538513e+02
    5.65387390e+02 3.09403778e+02 6.20115540e+02 3.11291107e+02
    1.17553131e+02 3.24480133e+02 1.90229691e+02 3.25393433e+02
    2.60614838e+02 3.26864471e+02 3.29349060e+02 3.28393280e+02
    3.95778900e+02 3.28829498e+02 4.59289062e+02 3.31557007e+02
    5.20845520e+02 3.32952332e+02 5.79505432e+02 3.34556946e+02
    6.36262756e+02 3.35675323e+02 1.11009949e+02 3.55664581e+02
    1.87619171e+02 3.56123566e+02 2.61603455e+02 3.56422974e+02
    3.33773743e+02 3.58408295e+02 4.03441559e+02 3.57726746e+02
    4.69769409e+02 3.59951111e+02 5.33839600e+02 3.61257111e+02
    5.94905823e+02 3.61922363e+02 6.53566284e+02 3.63447021e+02
    1.03581398e+02 3.90005554e+02 1.84589462e+02 3.90089539e+02
    2.62521576e+02 3.89916229e+02 3.38334595e+02 3.91438568e+02
    4.11472137e+02 3.91254303e+02 4.80751099e+02 3.91652161e+02
    5.47798828e+02 3.92720551e+02 6.11479431e+02 3.93144470e+02
    6.72645508e+02 3.93319397e+02 9.52534866e+01 4.29431122e+02
    1.81302917e+02 4.28703247e+02 2.63578461e+02 4.28587311e+02
    3.43461578e+02 4.28656281e+02 4.20397339e+02 4.27501984e+02
    4.93178925e+02 4.28351471e+02 5.63207947e+02 4.28172058e+02
    6.29600403e+02 4.27840607e+02 6.93384521e+02 4.27354553e+02
    1.93961288e+02 1.84858902e+02 2.70653656e+02 1.87857483e+02
    3.43619537e+02 1.90753555e+02 4.12171722e+02 1.93741608e+02
    4.76204071e+02 1.96522690e+02 5.35381409e+02 1.98663162e+02
    5.91604126e+02 2.01041992e+02 6.44121338e+02 2.03034317e+02
    6.93973938e+02 2.04849060e+02 1.89059021e+02 2.54086227e+02
    2.64308228e+02 2.54808548e+02 3.35695831e+02 2.55611267e+02
    4.03084839e+02 2.56332062e+02 4.65772278e+02 2.57174652e+02
    5.24563171e+02 2.57556976e+02 5.79830872e+02 2.57980408e+02
    6.31273987e+02 2.58255798e+02 6.80249146e+02 2.58399933e+02
    1.84350983e+02 3.18467041e+02 2.58281982e+02 3.17623444e+02
    3.28257935e+02 3.16463013e+02 3.94509796e+02 3.15557983e+02
    4.56613739e+02 3.14623627e+02 5.13810608e+02 3.12923035e+02
    5.68289734e+02 3.11328827e+02 6.19053894e+02 3.10063995e+02
    6.67443176e+02 3.08909485e+02 1.79931824e+02 3.80924316e+02
    2.52380219e+02 3.78208374e+02 3.21192719e+02 3.75531311e+02
    3.85958740e+02 3.72296509e+02 4.47168640e+02 3.70179077e+02
    5.03567017e+02 3.66418243e+02 5.57167786e+02 3.63452515e+02
    6.07372864e+02 3.60696289e+02 6.54683105e+02 3.57766968e+02
    1.75983307e+02 4.39736725e+02 2.46738373e+02 4.35541046e+02
    3.14112915e+02 4.31149170e+02 3.77196228e+02 4.25989197e+02
    4.37243805e+02 4.21683319e+02 4.93138367e+02 4.17227051e+02
    5.46120850e+02 4.12598846e+02 5.95572937e+02 4.08335876e+02
    6.42320679e+02 4.04444885e+02 1.72252686e+02 4.96538696e+02
    2.41486984e+02 4.90644989e+02 3.06694672e+02 4.84349792e+02
    3.69171844e+02 4.78027222e+02 4.28071625e+02 4.72482941e+02
    4.82961090e+02 4.66221893e+02 5.35213501e+02 4.60236267e+02
    5.84095947e+02 4.54915009e+02 6.30522766e+02 4.49962280e+02
    1.69986572e+02 1.87995819e+02 2.50410843e+02 1.89719681e+02
    3.26722137e+02 1.91704437e+02 3.98483154e+02 1.93689468e+02
    4.65869446e+02 1.95621933e+02 5.28382507e+02 1.97048813e+02
    5.87600708e+02 1.98672440e+02 6.42683716e+02 2.00066833e+02
    6.95414490e+02 2.01136185e+02 1.67523834e+02 2.60480682e+02
    2.46263077e+02 2.59891754e+02 3.21037537e+02 2.59731354e+02
    3.91758972e+02 2.59497772e+02 4.57672089e+02 2.59204895e+02
    5.19334351e+02 2.58909393e+02 5.77494080e+02 2.58471161e+02
    6.31501465e+02 2.57982056e+02 6.83044556e+02 2.57393433e+02
    1.65337082e+02 3.27992004e+02 2.42554199e+02 3.25766174e+02
    3.15566803e+02 3.23492676e+02 3.84939484e+02 3.21419922e+02
    4.50275818e+02 3.19538055e+02 5.10435303e+02 3.17028931e+02
    5.67451111e+02 3.14533447e+02 6.20668579e+02 3.12376038e+02
    6.71521362e+02 3.10477142e+02 1.63229111e+02 3.93079803e+02
    2.38738632e+02 3.89279358e+02 3.10423248e+02 3.85493317e+02
    3.78277924e+02 3.80947388e+02 4.42433167e+02 3.77750092e+02
    5.01689423e+02 3.73189514e+02 5.57730713e+02 3.69221313e+02
    6.10528809e+02 3.65513000e+02 6.59971313e+02 3.61804779e+02
    1.61260864e+02 4.54674591e+02 2.35000473e+02 4.49245239e+02
    3.05268005e+02 4.43435669e+02 3.71217651e+02 4.37268372e+02
    4.34060944e+02 4.31876129e+02 4.92716553e+02 4.26254456e+02
    5.48188904e+02 4.20819397e+02 5.99773560e+02 4.15610046e+02
    6.48912048e+02 4.10736969e+02 1.59500885e+02 5.13748108e+02
    2.31758347e+02 5.06582733e+02 2.99730408e+02 4.99116791e+02
    3.64956940e+02 4.91558624e+02 4.26448730e+02 4.85033936e+02
    4.83820770e+02 4.77592346e+02 5.38351990e+02 4.70693146e+02
    5.89724182e+02 4.64392059e+02 6.38287354e+02 4.58501404e+02
    1.75698334e+02 1.33618088e+02 2.23530487e+02 1.35975128e+02
    2.73102386e+02 1.38186737e+02 3.26059998e+02 1.40786972e+02
    3.81554565e+02 1.43648697e+02 4.39588226e+02 1.47069290e+02
    5.00626434e+02 1.50357086e+02 5.63569824e+02 1.53874359e+02
    6.29961243e+02 1.57419342e+02 1.76211975e+02 1.93767838e+02
    2.23470657e+02 1.97398834e+02 2.72921082e+02 2.01128952e+02
    3.25469574e+02 2.05148636e+02 3.81071991e+02 2.09440887e+02
    4.38504974e+02 2.13931732e+02 4.98820465e+02 2.18756119e+02
    5.61409973e+02 2.23612671e+02 6.26910400e+02 2.28873245e+02
    1.77325424e+02 2.52185867e+02 2.23772141e+02 2.57214050e+02
    2.73203308e+02 2.62148163e+02 3.25262421e+02 2.67320099e+02
    3.79634155e+02 2.73219269e+02 4.37261871e+02 2.78674713e+02
    4.97455017e+02 2.84677399e+02 5.59387390e+02 2.91009430e+02
    6.23988892e+02 2.97438385e+02 1.78171463e+02 3.10134827e+02
    2.24065598e+02 3.16386780e+02 2.72882294e+02 3.22661743e+02
    3.25202026e+02 3.29223816e+02 3.78738373e+02 3.36126984e+02
    4.35779816e+02 3.42652527e+02 4.95365112e+02 3.49975891e+02
    5.56675720e+02 3.57357056e+02 6.20980957e+02 3.65075073e+02
    1.78626389e+02 3.66704285e+02 2.24589050e+02 3.74113129e+02
    2.73240204e+02 3.81463074e+02 3.25438843e+02 3.88970642e+02
    3.79086121e+02 3.97113403e+02 4.34755066e+02 4.05154724e+02
    4.93972260e+02 4.13295502e+02 5.54602478e+02 4.21872528e+02
    6.17933472e+02 4.30566528e+02 1.79985687e+02 4.22711029e+02
    2.25796951e+02 4.31195282e+02 2.74177643e+02 4.39736877e+02
    3.25372009e+02 4.48435303e+02 3.78236420e+02 4.57576141e+02
    4.34112976e+02 4.66411316e+02 4.92590393e+02 4.75766144e+02
    5.52483337e+02 4.85419159e+02 6.14685425e+02 4.95618866e+02
    1.50531815e+02 1.21040146e+02 1.87872223e+02 1.23374748e+02
    2.27440079e+02 1.25752831e+02 2.70692322e+02 1.28108765e+02
    3.17304810e+02 1.31075150e+02 3.68219696e+02 1.34194977e+02
    4.23243011e+02 1.37824753e+02 4.82329132e+02 1.41753113e+02
    5.47087402e+02 1.46073929e+02 1.53432922e+02 1.83765503e+02
    1.90399399e+02 1.88246521e+02 2.29482498e+02 1.92640808e+02
    2.72305420e+02 1.97644211e+02 3.19242981e+02 2.03087952e+02
    3.69424561e+02 2.08825516e+02 4.23938263e+02 2.15425537e+02
    4.82956055e+02 2.22376770e+02 5.46599121e+02 2.29747330e+02
    1.56970123e+02 2.44178146e+02 1.92778000e+02 2.50598465e+02
    2.32135605e+02 2.57369781e+02 2.74281952e+02 2.64430969e+02
    3.19893982e+02 2.72565063e+02 3.70727509e+02 2.80661591e+02
    4.25404175e+02 2.89521271e+02 4.83421356e+02 2.99021851e+02
    5.46133850e+02 3.09400513e+02 1.60049515e+02 3.04130463e+02
    1.95390778e+02 3.12553314e+02 2.33950531e+02 3.21355957e+02
    2.76687988e+02 3.30472321e+02 3.21459045e+02 3.40767273e+02
    3.71482574e+02 3.50963226e+02 4.25557770e+02 3.62252441e+02
    4.83081665e+02 3.74124359e+02 5.45466675e+02 3.87112305e+02
    1.62619598e+02 3.62046143e+02 1.98158661e+02 3.72368896e+02
    2.36793839e+02 3.83030304e+02 2.79930389e+02 3.94037689e+02
    3.24923370e+02 4.06433685e+02 3.73360779e+02 4.19021454e+02
    4.26852417e+02 4.32399902e+02 4.83776520e+02 4.46739380e+02
    5.44851807e+02 4.61901306e+02 1.66314331e+02 4.19457489e+02
    2.02109253e+02 4.31485291e+02 2.40469696e+02 4.43695038e+02
    2.82466858e+02 4.56773956e+02 3.26831055e+02 4.71152496e+02
    3.75564697e+02 4.85295258e+02 4.28423065e+02 5.00726532e+02
    4.84013641e+02 5.17383911e+02 5.43777405e+02 5.35424316e+02
    1.52594070e+02 1.24991417e+02 1.93006714e+02 1.28336823e+02
    2.35680603e+02 1.31573486e+02 2.82001312e+02 1.35227844e+02
    3.31711090e+02 1.39302048e+02 3.85782623e+02 1.43676926e+02
    4.43862396e+02 1.48505066e+02 5.05977264e+02 1.54224747e+02
    5.73531067e+02 1.59898331e+02 1.54834290e+02 1.88400070e+02
    1.94843781e+02 1.93719559e+02 2.36857361e+02 1.99055801e+02
    2.82713531e+02 2.05057434e+02 3.32920563e+02 2.11427414e+02
    3.86115143e+02 2.18340134e+02 4.43704712e+02 2.25895081e+02
    5.05560242e+02 2.34057175e+02 5.71955688e+02 2.42654419e+02
    1.57779480e+02 2.49385147e+02 1.96564667e+02 2.56603058e+02
    2.38921295e+02 2.64026428e+02 2.84258789e+02 2.72276062e+02
    3.32853821e+02 2.81109833e+02 3.86504822e+02 2.90101349e+02
    4.44217468e+02 2.99702057e+02 5.05094971e+02 3.10235687e+02
    5.70171997e+02 3.21404724e+02 1.60277618e+02 3.09863098e+02
    1.98421646e+02 3.19052032e+02 2.39937149e+02 3.28404541e+02
    2.85971527e+02 3.38434082e+02 3.33637787e+02 3.49459747e+02
    3.86684906e+02 3.60160767e+02 4.43616455e+02 3.72142731e+02
    5.03594574e+02 3.84553314e+02 5.68442993e+02 3.98120239e+02
    1.62248566e+02 3.68385651e+02 2.00515060e+02 3.79167542e+02
    2.42164230e+02 3.90260956e+02 2.88148132e+02 4.01959961e+02
    3.36096436e+02 4.14752075e+02 3.87409241e+02 4.27794617e+02
    4.43756348e+02 4.41810852e+02 5.03074890e+02 4.56257965e+02
    5.66641907e+02 4.71630707e+02 1.65029282e+02 4.25907196e+02
    2.03615326e+02 4.38477692e+02 2.45085312e+02 4.51253143e+02
    2.90016510e+02 4.64751343e+02 3.37117096e+02 4.79372833e+02
    3.88959747e+02 4.93891205e+02 4.44318481e+02 5.09622406e+02
    5.02501526e+02 5.26287170e+02 5.64494080e+02 5.44290588e+02
    2.47170731e+02 1.17693375e+02 3.13073181e+02 1.35250565e+02
    3.73469116e+02 1.51122452e+02 4.28003387e+02 1.65903610e+02
    4.77689972e+02 1.79390305e+02 5.22255371e+02 1.91423920e+02
    5.63599792e+02 2.02535248e+02 6.01005249e+02 2.12812561e+02
    6.36060425e+02 2.22100296e+02 2.36391525e+02 1.94981186e+02
    3.03346497e+02 2.08773590e+02 3.64358551e+02 2.21127441e+02
    4.19623169e+02 2.32483643e+02 4.69215729e+02 2.42914886e+02
    5.14464600e+02 2.52039474e+02 5.56066589e+02 2.60606873e+02
    5.93452271e+02 2.68333557e+02 6.28249756e+02 2.75563934e+02
    2.25434875e+02 2.71354218e+02 2.93470978e+02 2.81344147e+02
    3.55006470e+02 2.90071564e+02 4.10752991e+02 2.98129761e+02
    4.61829071e+02 3.05519348e+02 5.06482300e+02 3.11898987e+02
    5.47858582e+02 3.17658051e+02 5.85529236e+02 3.23302734e+02
    6.20863037e+02 3.28134369e+02 2.14635620e+02 3.48409424e+02
    2.83516174e+02 3.54501190e+02 3.45758972e+02 3.59606567e+02
    4.01575043e+02 3.64329712e+02 4.53328125e+02 3.68560486e+02
    4.98477722e+02 3.71868866e+02 5.40320984e+02 3.75297516e+02
    5.78321960e+02 3.78310516e+02 6.13106018e+02 3.80951569e+02
    2.04542786e+02 4.24653015e+02 2.73490997e+02 4.26899139e+02
    3.36027863e+02 4.28352692e+02 3.91613434e+02 4.29539795e+02
    4.43281128e+02 4.30769440e+02 4.89500366e+02 4.31673187e+02
    5.31706421e+02 4.32295227e+02 5.69935791e+02 4.33040192e+02
    6.05302429e+02 4.33529877e+02 1.94262115e+02 5.01373199e+02
    2.63171906e+02 4.99703522e+02 3.25517212e+02 4.97650909e+02
    3.82076538e+02 4.95664948e+02 4.33992676e+02 4.93950623e+02
    4.80118225e+02 4.91574158e+02 5.22677673e+02 4.89777527e+02
    5.61638977e+02 4.88058258e+02 5.97588806e+02 4.86544678e+02
    2.40419815e+02 1.46068741e+02 3.02987305e+02 1.59414520e+02
    3.59444611e+02 1.71359009e+02 4.09550385e+02 1.82137329e+02
    4.54659180e+02 1.91954285e+02 4.94527130e+02 2.00600464e+02
    5.31430420e+02 2.08581451e+02 5.64383850e+02 2.15739197e+02
    5.94798706e+02 2.22176331e+02 2.23692627e+02 2.26264069e+02
    2.86949951e+02 2.34927475e+02 3.44133972e+02 2.42566757e+02
    3.95193481e+02 2.49628342e+02 4.40051117e+02 2.55738342e+02
    4.80813965e+02 2.61152924e+02 5.17986145e+02 2.66299622e+02
    5.50993713e+02 2.70559967e+02 5.81468994e+02 2.74585632e+02
    2.07103622e+02 3.03867889e+02 2.71502991e+02 3.08243439e+02
    3.28963043e+02 3.11644348e+02 3.80388489e+02 3.14993744e+02
    4.26719666e+02 3.18133789e+02 4.67186859e+02 3.20067444e+02
    5.04184204e+02 3.22070435e+02 5.37595215e+02 3.23993286e+02
    5.68673523e+02 3.25603882e+02 1.91011246e+02 3.81187164e+02
    2.56010223e+02 3.81265076e+02 3.14139709e+02 3.80700714e+02
    3.65409973e+02 3.80033325e+02 4.12757751e+02 3.79865631e+02
    4.53607086e+02 3.78651184e+02 4.90857605e+02 3.78107361e+02
    5.24946594e+02 3.77210632e+02 5.55615540e+02 3.76443542e+02
    1.75830627e+02 4.56538391e+02 2.40838867e+02 4.52151459e+02
    2.98990601e+02 4.47701904e+02 3.49841675e+02 4.43335571e+02
    3.97183258e+02 4.39849152e+02 4.39183960e+02 4.36285736e+02
    4.77243378e+02 4.32657776e+02 5.11393463e+02 4.29371918e+02
    5.42625061e+02 4.26359924e+02 1.60751266e+02 5.31055115e+02
    2.25623810e+02 5.22367432e+02 2.83247162e+02 5.14206299e+02
    3.35352661e+02 5.06501465e+02 3.82704651e+02 4.99843079e+02
    4.24469391e+02 4.93064880e+02 4.62794617e+02 4.86986664e+02
    4.97774109e+02 4.81495087e+02 5.29795044e+02 4.76495636e+02
    1.07785118e+02 1.87957779e+02 1.82402863e+02 1.90195572e+02
    2.53259613e+02 1.92011108e+02 3.21589996e+02 1.93951233e+02
    3.87067047e+02 1.95949142e+02 4.49095764e+02 1.97939941e+02
    5.08533295e+02 1.99825256e+02 5.64598083e+02 2.01878220e+02
    6.18494934e+02 2.03200806e+02 1.08893784e+02 2.55275742e+02
    1.82345764e+02 2.55735535e+02 2.52282379e+02 2.56169647e+02
    3.19823486e+02 2.56673706e+02 3.84453186e+02 2.57204803e+02
    4.45670624e+02 2.57669403e+02 5.04399323e+02 2.58184631e+02
    5.59565796e+02 2.58389038e+02 6.12504395e+02 2.58582428e+02
    1.10321671e+02 3.19253143e+02 1.82334045e+02 3.18442596e+02
    2.51351562e+02 3.17494141e+02 3.18164337e+02 3.16628387e+02
    3.82057312e+02 3.16046112e+02 4.42328705e+02 3.14597809e+02
    4.99915955e+02 3.13491058e+02 5.54571350e+02 3.12367279e+02
    6.06914551e+02 3.11440826e+02 1.11418747e+02 3.81924255e+02
    1.82398071e+02 3.80084686e+02 2.50333374e+02 3.77813202e+02
    3.16173004e+02 3.75325897e+02 3.79314728e+02 3.73367340e+02
    4.38762909e+02 3.70465912e+02 4.95913544e+02 3.68161194e+02
    5.49873962e+02 3.65687378e+02 6.01266235e+02 3.63314240e+02
    1.12587448e+02 4.42370087e+02 1.82504395e+02 4.39083954e+02
    2.49511368e+02 4.35401978e+02 3.13927216e+02 4.31399628e+02
    3.76097656e+02 4.28072205e+02 4.34942078e+02 4.24364502e+02
    4.91494843e+02 4.20465515e+02 5.44747559e+02 4.16747406e+02
    5.95596375e+02 4.13373199e+02 1.13612968e+02 5.01360260e+02
    1.82838043e+02 4.96525940e+02 2.48627960e+02 4.91587616e+02
    3.12108276e+02 4.86661621e+02 3.73194763e+02 4.82149933e+02
    4.31091675e+02 4.76751953e+02 4.86744629e+02 4.71753052e+02
    5.39664246e+02 4.67230255e+02 5.90175720e+02 4.62662109e+02
    1.18307449e+02 1.45760727e+02 1.94343628e+02 1.47875366e+02
    2.67317474e+02 1.49518570e+02 3.38341492e+02 1.51327438e+02
    4.07112427e+02 1.53532578e+02 4.72964355e+02 1.55283356e+02
    5.36506287e+02 1.57313034e+02 5.97183838e+02 1.59158783e+02
    6.55931396e+02 1.60617554e+02 1.22648476e+02 2.11141464e+02
    1.96363907e+02 2.11792480e+02 2.67511353e+02 2.12424973e+02
    3.37137421e+02 2.13220642e+02 4.04110931e+02 2.14046204e+02
    4.68422150e+02 2.14709351e+02 5.30656494e+02 2.15478088e+02
    5.89672913e+02 2.16002869e+02 6.46845581e+02 2.16232864e+02
    1.26767311e+02 2.71631165e+02 1.98514709e+02 2.71657959e+02
    2.68049896e+02 2.71265381e+02 3.35921967e+02 2.71240417e+02
    4.01703156e+02 2.71243958e+02 4.64294830e+02 2.70342285e+02
    5.24743469e+02 2.69488953e+02 5.82559753e+02 2.68988495e+02
    6.38550476e+02 2.68512604e+02 1.30795883e+02 3.29989227e+02
    2.00476761e+02 3.29244263e+02 2.68119659e+02 3.28190094e+02
    3.34584106e+02 3.26226654e+02 3.98790619e+02 3.25695801e+02
    4.59951141e+02 3.23512970e+02 5.19403931e+02 3.21794983e+02
    5.76022888e+02 3.20360107e+02 6.30388306e+02 3.18307373e+02
    1.34412613e+02 3.84999481e+02 2.02415054e+02 3.83308929e+02
    2.68589325e+02 3.81196716e+02 3.33237701e+02 3.78353760e+02
    3.95755920e+02 3.76277985e+02 4.55687195e+02 3.73717407e+02
    5.13792969e+02 3.70863129e+02 5.69067932e+02 3.68241974e+02
    6.22483582e+02 3.65659271e+02 1.38068451e+02 4.37382690e+02
    2.04480255e+02 4.34730194e+02 2.68778320e+02 4.31744415e+02
    3.32018341e+02 4.28178223e+02 3.92915771e+02 4.25399445e+02
    4.51490417e+02 4.21488556e+02 5.08302460e+02 4.17892914e+02
    5.62423767e+02 4.14568146e+02 6.14756042e+02 4.11538727e+02</data></image_points>
</opencv_storage>
